#Exudyn implicit second order time integration sensor output file
#measure Object number = 18
#OutputVariableType = Force
#simulation started = 2024-11-21,19:58:35
#columns contain: time, comma separated sensor values (e.g, x,y,z position coordinates)
#number of sensor values = 3
#Exudyn version = 1.9.0; Python3.11.8; Windows AVX2 FLOAT64
#
0,-1287.405099,-22083.18415,-0
0.001,-1287.733364,-22088.81498,3.337391625e-48
0.002,-1288.74452,-22106.15976,-1.30573711e-47
0.003,-1290.323723,-22133.24865,-8.038520643e-47
0.004,-1292.496592,-22170.52128,-1.281570599e-46
0.005,-1295.089889,-22215.00613,-1.042672536e-45
0.006,-1297.7361,-22260.39918,-1.960935765e-45
0.007,-1300.429661,-22306.60502,-1.430012642e-45
0.008,-1303.453924,-22358.48402,-8.970771711e-46
0.009,-1306.706472,-22414.27939,-8.994414908e-46
0.01,-1309.720528,-22465.98423,-9.01629758e-46
0.011,-1312.160175,-22507.83639,-9.033718164e-46
0.012,-1314.113636,-22541.34904,-9.047574203e-46
0.013,-1315.965851,-22573.12505,-1.024594261e-45
0.014,-1317.675725,-22602.45936,-5.968648854e-45
0.015,-1319.09805,-22626.86103,-2.348084666e-45
0.016,-1319.873563,-22640.16737,6.111739892e-45
0.017,-1319.862962,-22639.98878,6.111516625e-45
0.018,-1319.413292,-22632.27813,6.109171469e-45
0.019,-1318.843663,-22622.50918,6.106436822e-45
0.02,-1318.28951,-22613.00512,6.103786787e-45
0.021,-1317.629981,-22601.69298,6.100809584e-45
0.022,-1316.887234,-22588.95288,3.988890628e-45
0.023,-1316.237998,-22577.81643,2.614156293e-44
0.024,-1316.054225,-22574.66398,5.039668439e-44
0.025,-1316.306694,-22578.99435,5.040619821e-44
0.026,-1316.798452,-22587.42928,5.042484126e-44
0.027,-1317.250605,-22595.18487,5.044199663e-44
0.028,-1317.689317,-22602.70998,5.045842074e-44
0.029,-1318.385997,-22614.66023,5.048489743e-44
0.03,-1319.292655,-22630.21246,5.05199294e-44
0.031,-1320.495739,-22650.84958,5.056604029e-44
0.032,-1321.690686,-22671.3473,5.061159781e-44
0.033,-1322.763312,-22689.74698,5.065245439e-44
0.034,-1323.61636,-22704.38027,5.06848997e-44
0.035,-1324.236927,-22715.02578,5.070886998e-44
0.036,-1324.863754,-22725.77869,5.073336272e-44
0.037,-1325.427128,-22735.44309,5.075501008e-44
0.038,-1325.619645,-22738.74593,5.07623312e-44
0.039,-1325.352956,-22734.17166,5.075218633e-44
0.04,-1324.884996,-22726.14467,2.971360866e-44
0.041,-1324.403622,-22717.8873,6.966433897e-44
0.042,-1323.85575,-22708.48895,1.305853417e-43
0.043,-1323.249032,-22698.08085,1.3052578e-43
0.044,-1322.459157,-22684.53068,1.304479642e-43
0.045,-1321.251626,-22663.816,2.106421603e-43
0.046,-1320.061996,-22643.40811,2.906932363e-43
0.047,-1319.243505,-22629.36624,2.905126981e-43
0.048,-1318.804693,-22621.83697,2.904158482e-43
0.049,-1318.325215,-22613.61,2.903102938e-43
0.05,-1317.521143,-22599.81507,2.901340292e-43
0.051,-1316.732537,-22586.28539,2.89961326e-43
0.052,-1316.176671,-22576.74796,2.898382587e-43
0.053,-1315.914452,-22572.24755,2.897803801e-43
0.054,-1315.735155,-22569.16957,2.897409129e-43
0.055,-1315.461951,-22564.48083,2.896798757e-43
0.056,-1315.007838,-22556.68894,2.895791064e-43
0.057,-1314.603538,-22549.75157,2.894900899e-43
0.058,-1314.409344,-22546.41825,2.894479668e-43
0.059,-1314.189816,-22542.65039,2.893995821e-43
0.06,-1313.851954,-22536.85273,2.893264473e-43
0.061,-1313.220617,-22526.02097,2.891889984e-43
0.062,-1312.468687,-22513.12057,2.89024601e-43
0.063,-1311.747184,-22500.74197,2.888654727e-43
0.064,-1310.984767,-22487.66142,2.886956378e-43
0.065,-1309.972483,-22470.29466,2.884729072e-43
0.066,-1308.699373,-22448.4537,2.881936217e-43
0.067,-1307.38093,-22425.83494,2.879026142e-43
0.068,-1306.010265,-22402.32021,2.876008305e-43
0.069,-1304.930492,-22383.7951,2.873629656e-43
0.07,-1304.007847,-22367.96512,2.871578314e-43
0.071,-1302.921993,-22349.33546,2.869169493e-43
0.072,-1301.564054,-22326.03856,2.86616656e-43
0.073,-1300.215867,-22302.90892,2.863192954e-43
0.074,-1299.304874,-22287.27855,2.861198866e-43
0.075,-1298.75442,-22277.83262,2.85999126e-43
0.076,-1298.126221,-22267.05314,2.858586725e-43
0.077,-1297.216514,-22251.44488,2.856575228e-43
0.078,-1296.139503,-22232.96685,2.854201162e-43
0.079,-1295.055324,-22214.36593,2.851817541e-43
0.08,-1294.291732,-22201.26417,2.850157081e-43
0.081,-1293.693125,-22190.99251,2.848831283e-43
0.082,-1293.055703,-22180.05515,2.847396873e-43
0.083,-1292.216306,-22165.65336,2.845519214e-43
0.084,-1291.311673,-22150.13264,2.843536403e-43
0.085,-1290.637879,-22138.57164,2.842060295e-43
0.086,-1290.067266,-22128.78059,2.840776359e-43
0.087,-1289.445208,-22118.10713,2.839409822e-43
0.088,-1288.647227,-22104.41602,2.735579859e-43
0.089,-1287.587689,-22086.23831,2.63134218e-43
0.09,-1286.483805,-22067.29988,2.62908603e-43
0.091,-1285.582344,-22051.83359,2.627228301e-43
0.092,-1284.661166,-22036.02901,2.625331601e-43
0.093,-1283.768071,-22020.7061,2.623474309e-43
0.094,-1282.79838,-22004.06926,2.621465616e-43
0.095,-1281.689946,-21985.05248,2.619192465e-43
0.096,-1280.697752,-21968.02956,2.617181456e-43
0.097,-1279.870593,-21953.83752,2.615491702e-43
0.098,-1279.226932,-21942.79304,2.614162382e-43
0.099,-1278.417741,-21928.90921,2.612524809e-43
0.1,-1277.3857,-21911.20282,2.610431426e-43
0.101,-1276.402881,-21894.34079,2.608441978e-43
0.102,-1275.748017,-21883.10429,2.60710209e-43
0.103,-1275.392137,-21876.9964,2.606371057e-43
0.104,-1275.03554,-21870.87632,2.605710122e-43
0.105,-1274.579703,-21863.05406,2.604846845e-43
0.106,-1274.06882,-21854.28771,2.603752729e-43
0.107,-1273.697263,-21847.91141,2.60291854e-43
0.108,-1273.532548,-21845.08325,2.602592057e-43
0.109,-1273.486514,-21844.29102,2.602485639e-43
0.11,-1273.330111,-21841.60574,2.602170744e-43
0.111,-1272.949729,-21835.07862,2.601388995e-43
0.112,-1272.535387,-21827.96906,2.600544478e-43
0.113,-1272.204242,-21822.28664,2.599879266e-43
0.114,-1272.041808,-21819.49819,2.599508349e-43
0.115,-1271.805782,-21815.44741,2.5989803e-43
0.116,-1271.359751,-21807.79437,2.597991578e-43
0.117,-1270.865003,-21799.30568,2.596976036e-43
0.118,-1270.41239,-21791.53972,2.596081855e-43
0.119,-1270.161962,-21787.24188,2.595599402e-43
0.12,-1270.021741,-21784.83445,2.595333277e-43
0.121,-1269.761832,-21780.37401,2.594813947e-43
0.122,-1269.204738,-21770.81593,2.593664414e-43
0.123,-1268.684165,-21761.88433,2.592613076e-43
0.124,-1268.526601,-21759.17953,2.592307431e-43
0.125,-1268.523834,-21759.13004,2.592285909e-43
0.126,-1268.60605,-21760.53835,2.592502191e-43
0.127,-1268.623559,-21760.83682,2.592581852e-43
0.128,-1268.511532,-21758.91343,2.592371716e-43
0.129,-1268.524739,-21759.13829,2.592441771e-43
0.13,-1268.752406,-21763.04197,2.592878118e-43
0.131,-1269.133862,-21769.58372,2.593599215e-43
0.132,-1269.658326,-21778.57866,2.594651852e-43
0.133,-1269.9768,-21784.04032,2.595267174e-43
0.134,-1270.080564,-21785.81913,2.595492661e-43
0.135,-1270.422704,-21791.6869,2.596291335e-43
0.136,-1270.84912,-21799.00033,2.597257205e-43
0.137,-1271.230299,-21805.53784,2.598029254e-43
0.138,-1271.416287,-21808.72726,2.598411344e-43
0.139,-1271.545986,-21810.95117,2.598747304e-43
0.14,-1271.737638,-21814.23779,2.599169746e-43
0.141,-1272.031591,-21819.2792,2.599814905e-43
0.142,-1272.412589,-21825.81371,2.600600394e-43
0.143,-1272.672511,-21830.27138,2.601079386e-43
0.144,-1272.796091,-21832.39039,2.601268082e-43
0.145,-1272.829926,-21832.97001,2.601265446e-43
0.146,-1273.217392,-21839.61554,2.601969029e-43
0.147,-1273.7912,-21849.45745,2.603022631e-43
0.148,-1274.350049,-21859.04283,2.604184058e-43
0.149,-1274.783232,-21866.47269,2.605215289e-43
0.15,-1274.919042,-21868.80171,2.605657897e-43
0.151,-1275.300272,-21875.34051,2.606559189e-43
0.152,-1276.053021,-21888.25206,2.608209196e-43
0.153,-1276.801922,-21901.09766,2.609780797e-43
0.154,-1277.437282,-21911.99573,2.611096612e-43
0.155,-1277.922573,-21920.31973,2.612197779e-43
0.156,-1278.346362,-21927.5888,2.613109209e-43
0.157,-1278.879193,-21936.72835,2.614246378e-43
0.158,-1279.638941,-21949.7603,2.615852611e-43
0.159,-1280.558856,-21965.53967,2.617686239e-43
0.16,-1281.174697,-21976.10322,2.619021897e-43
0.161,-1281.434315,-21980.55646,2.619652746e-43
0.162,-1281.731485,-21985.65383,2.620342742e-43
0.163,-1282.287723,-21995.19503,2.621568166e-43
0.164,-1283.016094,-22007.68886,2.622965654e-43
0.165,-1283.672706,-22018.95183,2.624263792e-43
0.166,-1284.150768,-22027.15211,2.625249129e-43
0.167,-1284.583922,-22034.58208,2.626204173e-43
0.168,-1285.095759,-22043.36174,2.627278432e-43
0.169,-1285.719236,-22054.05638,2.628455839e-43
0.17,-1286.315128,-22064.27784,2.629621672e-43
0.171,-1286.779891,-22072.25005,2.630666339e-43
0.172,-1287.135168,-22078.34423,2.63154491e-43
0.173,-1287.459055,-22083.89997,2.632190314e-43
0.174,-1287.983698,-22092.89931,2.63323082e-43
0.175,-1288.689808,-22105.0114,2.634618087e-43
0.176,-1289.384185,-22116.92223,2.636107947e-43
0.177,-1289.903191,-22125.82492,2.63729996e-43
0.178,-1290.322573,-22133.01877,2.638187644e-43
0.179,-1290.758371,-22140.4942,2.639150697e-43
0.18,-1291.448503,-22152.33228,6.529329734e-43
0.181,-1292.156765,-22164.48131,1.042388161e-42
0.182,-1292.494248,-22170.27031,1.042673421e-42
0.183,-1292.675942,-22173.38698,1.042815924e-42
0.184,-1292.841807,-22176.23208,1.042952797e-42
0.185,-1293.211567,-22182.57455,1.043258043e-42
0.186,-1293.657088,-22190.21649,1.043618813e-42
0.187,-1293.922165,-22194.76321,1.043832556e-42
0.188,-1294.203682,-22199.59186,1.044056087e-42
0.189,-1294.466557,-22204.10071,1.044276854e-42
0.19,-1294.830948,-22210.35084,1.044582502e-42
0.191,-1295.46338,-22221.19871,1.045093456e-42
0.192,-1296.029214,-22230.90419,1.045535624e-42
0.193,-1296.273469,-22235.09355,1.045718821e-42
0.194,-1296.305004,-22235.63409,1.045743805e-42
0.195,-1296.328222,-22236.03192,1.04577373e-42
0.196,-1296.575524,-22240.27349,1.045982077e-42
0.197,-1297.025337,-22247.98876,1.046343262e-42
0.198,-1297.584066,-22257.57229,1.046794717e-42
0.199,-1297.970024,-22264.19226,1.047108206e-42
0.2,-1298.120414,-22266.77155,1.047231771e-42
0.201,-1298.345629,-22270.63436,1.047407984e-42
0.202,-1298.681306,-22276.39196,1.047680083e-42
0.203,-1299.119293,-22283.90456,1.048036426e-42
0.204,-1299.532977,-22291.00032,1.048367936e-42
0.205,-1299.74088,-22294.5663,1.048527394e-42
0.206,-1299.920057,-22297.63951,1.048668507e-42
0.207,-1300.058359,-22300.01152,1.048797984e-42
0.208,-1300.191065,-22302.28747,1.048914904e-42
0.209,-1300.356889,-22305.13136,1.049026635e-42
0.21,-1300.207119,-22302.56171,1.048884922e-42
0.211,-1299.874254,-22296.85129,1.04861405e-42
0.212,-1299.620585,-22292.4992,1.048420742e-42
0.213,-1299.450014,-22289.57238,1.048310357e-42
0.214,-1299.301585,-22287.02531,1.048210964e-42
0.215,-1299.227987,-22285.76174,1.048158414e-42
0.216,-1299.111213,-22283.75752,1.048046813e-42
0.217,-1298.901666,-22280.16194,1.047861677e-42
0.218,-1298.774864,-22277.98565,1.047763041e-42
0.219,-1298.81863,-22278.73513,1.047799785e-42
0.22,-1298.932498,-22280.68702,1.047872136e-42
0.221,-1298.841714,-22279.12849,1.047788185e-42
0.222,-1298.607064,-22275.10218,1.047605861e-42
0.223,-1298.386973,-22271.32561,1.047431792e-42
0.224,-1298.399277,-22271.53532,1.047437225e-42
0.225,-1298.646449,-22275.77376,1.047616389e-42
0.226,-1298.756831,-22277.66587,1.047704309e-42
0.227,-1298.681953,-22276.38019,1.047650112e-42
0.228,-1298.595239,-22274.8915,1.047576656e-42
0.229,-1298.483401,-22272.97186,1.047494175e-42
0.23,-1298.580333,-22274.63323,1.047575056e-42
0.231,-1298.665644,-22276.09523,1.047608387e-42
0.232,-1298.307616,-22269.95252,1.047293042e-42
0.233,-1297.794555,-22261.15042,1.046889766e-42
0.234,-1297.289247,-22252.48122,1.046470252e-42
0.235,-1297.06465,-22248.627,1.046258658e-42
0.236,-1296.975514,-22247.09629,1.046172722e-42
0.237,-1296.650667,-22241.52234,1.045921398e-42
0.238,-1296.248109,-22234.61535,1.045607593e-42
0.239,-1295.852425,-22227.82623,1.045265221e-42
0.24,-1295.668966,-22224.67739,1.045081804e-42
0.241,-1295.69707,-22225.15753,1.045096712e-42
0.242,-1295.635493,-22224.09933,1.045050896e-42
0.243,-1295.33185,-22218.88894,1.044778775e-42
0.244,-1294.909101,-22211.63552,1.044406128e-42
0.245,-1294.548501,-22205.4481,1.04412978e-42
0.246,-1294.268134,-22200.63693,1.043930602e-42
0.247,-1294.065047,-22197.15134,1.043761341e-42
0.248,-1293.970389,-22195.52563,1.04367473e-42
0.249,-1293.710998,-22191.07425,1.043472854e-42
0.25,-1293.273003,-22183.55929,1.043166174e-42
0.251,-1293.04931,-22179.72028,1.043037344e-42
0.252,-1292.996247,-22178.8081,1.042999956e-42
0.253,-1292.953179,-22178.06741,1.042950988e-42
0.254,-1292.741459,-22174.43382,1.042780409e-42
0.255,-1292.388218,-22168.37268,1.042517558e-42
0.256,-1292.019543,-22162.0468,1.042235514e-42
0.257,-1291.843026,-22159.01698,1.04210754e-42
0.258,-1291.629232,-22155.34772,1.041949166e-42
0.259,-1291.142111,-22146.99002,1.041559615e-42
0.26,-1290.648287,-22138.51735,1.041150538e-42
0.261,-1290.262581,-22131.89921,1.040826664e-42
0.262,-1290.026078,-22127.84037,1.040635489e-42
0.263,-1289.913815,-22125.91265,1.040538968e-42
0.264,-1289.930703,-22126.20025,1.040533589e-42
0.265,-1289.708282,-22122.38299,1.040342762e-42
0.266,-1289.125122,-22112.37796,1.03987398e-42
0.267,-1288.575466,-22102.94758,1.039427298e-42
0.268,-1288.234447,-22097.09597,1.039139362e-42
0.269,-1288.031793,-22093.61774,1.038967343e-42
0.27,-1287.846892,-22090.44404,1.038836295e-42
0.271,-1287.5332,-22085.06122,1.03859172e-42
0.272,-1287.173926,-22078.89655,1.038298431e-42
0.273,-1286.987142,-22075.69067,1.038143977e-42
0.274,-1286.98357,-22075.62748,1.038096707e-42
0.275,-1287.042116,-22076.62984,1.038084321e-42
0.276,-1286.865143,-22073.59238,1.037905562e-42
0.277,-1286.437855,-22066.26125,1.037519596e-42
0.278,-1286.073251,-22060.00535,1.037174288e-42
0.279,-1285.825356,-22055.75136,1.036944389e-42
0.28,-1285.824407,-22055.73322,1.036935994e-42
0.281,-1285.771915,-22054.83097,1.036906004e-42
0.282,-1285.383382,-22048.16457,1.036598125e-42
0.283,-1284.987897,-22041.37891,1.03630045e-42
0.284,-1284.660519,-22035.76152,1.036061622e-42
0.285,-1284.645587,-22035.50352,1.036037475e-42
0.286,-1284.75591,-22037.39403,1.036101488e-42
0.287,-1284.631824,-22035.26373,1.036007712e-42
0.288,-1284.305293,-22029.66088,1.035778773e-42
0.289,-1283.886779,-22022.48023,1.035457971e-42
0.29,-1283.631365,-22018.09724,1.035242924e-42
0.291,-1283.680505,-22018.93826,1.035272287e-42
0.292,-1283.824148,-22021.40028,1.035382371e-42
0.293,-1283.68927,-22019.08487,1.035260288e-42
0.294,-1283.393516,-22014.00996,1.035033314e-42
0.295,-1283.245473,-22011.46876,1.034922984e-42
0.296,-1283.324491,-22012.8224,1.035011621e-42
0.297,-1283.567031,-22016.98099,1.035191664e-42
0.298,-1283.763473,-22020.3489,1.035323107e-42
0.299,-1283.653494,-22018.46081,1.035241272e-42
0.3,-1283.500922,-22015.84215,1.035077299e-42
0.301,-1283.463596,-22015.20032,1.035037062e-42
0.302,-1283.457221,-22015.08941,1.035048363e-42
0.303,-1283.479734,-22015.47402,1.035044106e-42
0.304,-1283.386972,-22013.88131,1.034954074e-42
0.305,-1283.16287,-22010.03574,1.034761018e-42
0.306,-1282.907858,-22005.66001,1.034560297e-42
0.307,-1282.802754,-22003.85567,1.034470837e-42
0.308,-1282.974559,-22006.80123,1.034574996e-42
0.309,-1283.25985,-22011.69347,1.034783348e-42
0.31,-1283.412072,-22014.30323,1.034898652e-42
0.311,-1283.433173,-22014.66392,1.034948164e-42
0.312,-1283.485482,-22015.55996,1.035063033e-42
0.313,-1283.594474,-22017.42828,1.035182962e-42
0.314,-1283.681386,-22018.91788,1.035257897e-42
0.315,-1283.60233,-22017.56059,1.035216975e-42
0.316,-1283.299111,-22012.3582,1.034973888e-42
0.317,-1283.088734,-22008.74831,1.03474777e-42
0.318,-1283.033454,-22007.79879,1.034672553e-42
0.319,-1283.116333,-22009.21909,1.034801359e-42
0.32,-1283.263855,-22011.74822,1.03495491e-42
0.321,-1283.215756,-22010.9219,1.034945844e-42
0.322,-1283.122067,-22009.3136,1.034885711e-42
0.323,-1283.252406,-22011.54808,1.034976469e-42
0.324,-1283.606626,-22017.62282,1.035264476e-42
0.325,-1283.920514,-22023.00578,1.03551051e-42
0.326,-1283.977812,-22023.98749,1.035566769e-42
0.327,-1283.967533,-22023.81007,1.035578118e-42
0.328,-1283.867917,-22022.10028,1.035513328e-42
0.329,-1283.878832,-22022.28642,1.035509544e-42
0.33,-1284.246538,-22028.59261,1.035749145e-42
0.331,-1284.591101,-22034.50187,1.036000945e-42
0.332,-1284.708138,-22036.50839,1.036141674e-42
0.333,-1284.756528,-22037.33745,1.036189428e-42
0.334,-1284.908636,-22039.9456,1.036277334e-42
0.335,-1285.328343,-22047.1439,1.036594893e-42
0.336,-1285.876158,-22056.53965,1.037015396e-42
0.337,-1286.133076,-22060.94563,1.037186409e-42
0.338,-1286.031758,-22059.20677,1.037068627e-42
0.339,-1285.801039,-22055.24823,1.036875307e-42
0.34,-1285.703346,-22053.57144,1.036831781e-42
0.341,-1285.801812,-22055.2593,1.036969048e-42
0.342,-1285.972579,-22058.18729,1.037123345e-42
0.343,-1286.051719,-22059.54361,1.037148934e-42
0.344,-1286.026559,-22059.11089,1.037085648e-42
0.345,-1286.148631,-22061.20363,1.037171199e-42
0.346,-1286.498125,-22067.19738,1.037466346e-42
0.347,-1286.957419,-22075.07455,1.037811566e-42
0.348,-1287.422331,-22083.04815,1.038169395e-42
0.349,-1287.617394,-22086.39304,1.038357303e-42
0.35,-1287.492397,-22084.24799,1.038309135e-42
0.351,-1287.5327,-22084.93833,1.038433101e-42
0.352,-1287.815941,-22089.79579,1.038718716e-42
0.353,-1288.087072,-22094.44555,1.038955932e-42
0.354,-1288.243462,-22097.1272,1.039087169e-42
0.355,-1288.308607,-22098.24375,1.039155521e-42
0.356,-1288.513329,-22101.75447,1.039323409e-42
0.357,-1288.879082,-22108.02737,1.039622207e-42
0.358,-1289.19958,-22113.52402,1.039917831e-42
0.359,-1289.414313,-22117.2065,1.040165696e-42
0.36,-1289.530499,-22119.1986,1.040300375e-42
0.361,-1289.516802,-22118.96279,1.040298001e-42
0.362,-1289.564613,-22119.78201,1.040347881e-42
0.363,-1289.862745,-22124.89492,1.040621664e-42
0.364,-1290.14868,-22129.79859,1.040837864e-42
0.365,-1290.123964,-22129.37364,1.040798659e-42
0.366,-1289.972543,-22126.77529,1.040770013e-42
0.367,-1289.945985,-22126.31867,1.040795495e-42
0.368,-1290.172426,-22130.20174,1.040972868e-42
0.369,-1290.435961,-22134.72107,1.041192499e-42
0.37,-1290.412211,-22134.31261,1.041183252e-42
0.371,-1290.354443,-22133.32067,1.04114644e-42
0.372,-1290.384508,-22133.83531,1.041134948e-42
0.373,-1290.496923,-22135.76253,1.041170129e-42
0.374,-1290.769561,-22140.43803,1.041428453e-42
0.375,-1291.070675,-22145.60199,1.041729613e-42
0.376,-1291.248166,-22148.64548,1.04189075e-42
0.377,-1291.278447,-22149.16388,1.041880491e-42
0.378,-1291.305582,-22149.62833,1.04183391e-42
0.379,-1291.430984,-22151.77837,1.041958767e-42
0.38,-1291.66353,-22155.76629,1.042197734e-42
0.381,-1291.807042,-22158.22703,1.042278133e-42
0.382,-1291.704792,-22156.47224,1.042148572e-42
0.383,-1291.748194,-22157.21582,1.042219451e-42
0.384,-1291.91669,-22160.10511,1.042425433e-42
0.385,-1292.189865,-22164.78991,1.042671983e-42
0.386,-1292.592517,-22171.69558,1.042958979e-42
0.387,-1292.631055,-22172.35556,1.04296022e-42
0.388,-1292.321261,-22167.04056,1.042704664e-42
0.389,-1292.006567,-22161.64146,1.042412437e-42
0.39,-1291.966387,-22160.95102,1.042347217e-42
0.391,-1292.052842,-22162.43273,1.042416913e-42
0.392,-1292.179152,-22164.59803,1.042556024e-42
0.393,-1292.17654,-22164.55192,1.042612008e-42
0.394,-1291.966892,-22160.95454,1.042467532e-42
0.395,-1291.947905,-22160.62753,1.042456044e-42
0.396,-1292.083127,-22162.94564,1.042588247e-42
0.397,-1292.335878,-22167.2797,1.042863942e-42
0.398,-1292.52435,-22170.51114,1.043078978e-42
0.399,-1292.450697,-22169.24633,1.043043177e-42
0.4,-1292.282767,-22166.36437,1.042868553e-42
0.401,-1292.117488,-22163.52786,1.042705905e-42
0.402,-1292.065426,-22162.63333,1.042718926e-42
0.403,-1292.105458,-22163.31849,1.04280412e-42
0.404,-1292.121732,-22163.59616,1.042820076e-42
0.405,-1292.06837,-22162.6794,1.042799254e-42
0.406,-1292.105878,-22163.32136,1.042865908e-42
0.407,-1292.307141,-22166.77222,1.043013554e-42
0.408,-1292.507731,-22170.21158,1.043184138e-42
0.409,-1292.520772,-22170.43391,1.043194727e-42
0.41,-1292.329771,-22167.15635,1.043037909e-42
0.411,-1292.045673,-22162.28187,1.042766901e-42
0.412,-1291.952902,-22160.68918,1.0426293e-42
